Kern                        M5401035
Kanal                        5 
Datum                       08-15-2002
Startzeit                   15:06:59
Bediener                    Martin
Messteufe (cm)              296
Abtastrate (s)               1 
Vorabmessung                 100 
Pulslaenge                   5 
Abklingmessung               200 
Heizstrom (A)                .35 
 1             9610.002 
 2             9609.984 
 3             9610.261 
 4             9610.572 
 5             9610.933 
 6             9611.423 
 7             9611.772 
 8             9612.155 
 9             9612.538 
 10            9612.919 
 11            9613.293 
 12            9613.683 
 13            9614.074 
 14            9614.458 
 15            9614.851 
 16            9615.239 
 17            9615.618 
 18            9616.025 
 19            9616.419 
 20            9616.793 
 21            9617.194 
 22            9617.588 
 23            9617.975 
 24            9618.382 
 25            9618.774 
 26            9619.319 
 27            9619.715 
 28            9620.111 
 29            9620.505 
 30            9620.895 
 31            9621.296 
 32            9621.688 
 33            9622.08 
 34            9622.466 
 35            9622.878 
 36            9623.273 
 37            9623.669 
 38            9624.065 
 39            9624.45 
 40            9624.854 
 41            9625.239 
 42            9625.651 
 43            9626.044 
 44            9626.429 
 45            9626.836 
 46            9627.388 
 47            9627.783 
 48            9628.18 
 49            9628.562 
 50            9628.971 
 51            9629.366 
 52            9629.752 
 53            9630.152 
 54            9630.555 
 55            9630.947 
 56            9631.329 
 57            9631.731 
 58            9632.127 
 59            9632.527 
 60            9632.913 
 61            9633.315 
 62            9633.714 
 63            9634.1 
 64            9634.504 
 65            9635.052 
 66            9635.449 
 67            9635.847 
 68            9636.242 
 69            9636.625 
 70            9637.029 
 71            9637.425 
 72            9637.818 
 73            9638.199 
 74            9638.607 
 75            9639.001 
 76            9639.381 
 77            9639.786 
 78            9640.18 
 79            9640.566 
 80            9640.97 
 81            9641.362 
 82            9641.753 
 83            9642.145 
 84            9642.542 
 85            9643.094 
 86            9643.48 
 87            9643.878 
 88            9644.26 
 89            9644.669 
 90            9645.059 
 91            9645.439 
 92            9645.844 
 93            9646.237 
 94            9646.617 
 95            9647.021 
 96            9647.413 
 97            9647.812 
 98            9648.189 
 99            9648.59 
 100           9648.98 
 101           9265.809 
 102           8864.241 
 103           8626.343 
 104           8454.788 
 105           8275.619 
 106           8597.53 
 107           8830.191 
 108           8963.145 
 109           9059.074 
 110           9128.441 
 111           9182.517 
 112           9226.035 
 113           9260.962 
 114           9291.974 
 115           9317.87 
 116           9339.673 
 117           9359.8 
 118           9377.165 
 119           9392.185 
 120           9406.413 
 121           9418.973 
 122           9430.024 
 123           9440.68 
 124           9449.955 
 125           9462.512 
 126           9470.544 
 127           9477.842 
 128           9484.444 
 129           9490.955 
 130           9496.923 
 131           9502.364 
 132           9507.771 
 133           9512.746 
 134           9517.322 
 135           9521.891 
 136           9526.128 
 137           9530.04 
 138           9533.974 
 139           9537.641 
 140           9541.042 
 141           9544.47 
 142           9547.682 
 143           9550.678 
 144           9553.696 
 145           9557.543 
 146           9560.143 
 147           9562.799 
 148           9565.318 
 149           9567.674 
 150           9570.085 
 151           9572.357 
 152           9574.564 
 153           9576.633 
 154           9578.755 
 155           9580.763 
 156           9582.663 
 157           9584.606 
 158           9586.456 
 159           9588.208 
 160           9590.002 
 161           9591.712 
 162           9593.373 
 163           9594.952 
 164           9597.245 
 165           9598.811 
 166           9600.309 
 167           9601.782 
 168           9603.176 
 169           9604.616 
 170           9605.999 
 171           9607.312 
 172           9608.679 
 173           9609.978 
 174           9611.208 
 175           9612.493 
 176           9613.726 
 177           9614.902 
 178           9616.115 
 179           9617.286 
 180           9618.4 
 181           9619.561 
 182           9620.665 
 183           9621.761 
 184           9623.261 
 185           9624.316 
 186           9625.361 
 187           9626.354 
 188           9627.383 
 189           9628.388 
 190           9629.348 
 191           9630.333 
 192           9631.295 
 193           9632.238 
 194           9633.152 
 195           9634.103 
 196           9635.015 
 197           9635.895 
 198           9636.801 
 199           9637.688 
 200           9638.568 
 201           9639.405 
 202           9640.273 
 203           9641.097 
 204           9642.271 
 205           9643.08 
 206           9643.919 
 207           9644.723 
 208           9645.502 
 209           9646.313 
 210           9647.101 
 211           9647.855 
 212           9648.646 
 213           9649.415 
 214           9650.149 
 215           9650.915 
 216           9651.658 
 217           9652.399 
 218           9653.116 
 219           9653.864 
 220           9654.579 
 221           9655.301 
 222           9655.99 
 223           9656.716 
 224           9657.69 
 225           9658.366 
 226           9659.071 
 227           9659.736 
 228           9660.43 
 229           9661.091 
 230           9661.784 
 231           9662.435 
 232           9663.106 
 233           9663.742 
 234           9664.42 
 235           9665.056 
 236           9665.723 
 237           9666.342 
 238           9666.991 
 239           9667.605 
 240           9668.258 
 241           9668.874 
 242           9669.51 
 243           9670.383 
 244           9670.996 
 245           9671.598 
 246           9672.206 
 247           9672.825 
 248           9673.415 
 249           9674.035 
 250           9674.615 
 251           9675.227 
 252           9675.806 
 253           9676.391 
 254           9676.994 
 255           9677.566 
 256           9678.147 
 257           9678.746 
 258           9679.308 
 259           9679.901 
 260           9680.459 
 261           9681.024 
 262           9681.613 
 263           9682.407 
 264           9682.963 
 265           9683.507 
 266           9684.08 
 267           9684.632 
 268           9685.187 
 269           9685.756 
 270           9686.285 
 271           9686.85 
 272           9687.385 
 273           9687.949 
 274           9688.472 
 275           9689.021 
 276           9689.547 
 277           9690.095 
 278           9690.627 
 279           9691.158 
 280           9691.7 
 281           9692.213 
 282           9692.753 
 283           9693.492 
 284           9694.022 
 285           9694.532 
 286           9695.056 
 287           9695.563 
 288           9696.096 
 289           9696.601 
 290           9697.131 
 291           9697.629 
 292           9698.158 
 293           9698.659 
 294           9699.177 
 295           9699.675 
 296           9700.194 
 297           9700.686 
 298           9701.197 
 299           9701.687 
 300           9702.203 
 301           9702.691 
 302           9703.201 
 303           9703.89 
 304           9704.373 
 305           9704.867 
